Energy sigmaCC sigmaNC
0.01 0 2.71092e-05
0.135115 0.00445713 0.0215248
0.26023 0.168191 0.0797762
0.385345 0.361239 0.136161
0.51046 0.538642 0.189905
0.635576 0.717118 0.239634
0.760691 0.871376 0.283292
0.885806 1.0009 0.322549
1.01092 1.12069 0.359387
1.13604 1.23204 0.39525
1.26115 1.3396 0.429857
1.38627 1.44092 0.462968
1.51138 1.53477 0.494908
1.6365 1.6246 0.525865
1.76161 1.71207 0.556015
1.88673 1.79771 0.585759
2.01184 1.88568 0.615148
2.13696 1.96889 0.644086
2.26207 2.05136 0.672873
2.38719 2.13358 0.701477
2.5123 2.21549 0.729898
2.63742 2.30024 0.758202
2.76253 2.38426 0.786455
2.88765 2.46758 0.814642
3.01276 2.55048 0.842753
3.13788 2.63726 0.870776
3.26299 2.72149 0.898774
3.38811 2.8051 0.926708
3.51322 2.88835 0.954629
3.63834 2.97146 0.982456
3.76345 3.05439 1.01024
3.88857 3.13699 1.03796
4.01368 3.21929 1.0656
4.1388 3.30151 1.09323
4.26391 3.38365 1.12092
4.38903 3.46555 1.14866
4.51414 3.5475 1.17639
4.63926 3.62946 1.20407
4.76437 3.7116 1.2317
4.88949 3.79391 1.25929
5.0146 3.87605 1.28682
5.13972 3.95776 1.31433
5.26483 4.0389 1.34183
5.38995 4.12061 1.36932
5.51507 4.20321 1.3968
5.64018 4.28663 1.42428
5.7653 4.37033 1.45169
5.89041 4.4538 1.47904
6.01553 4.53689 1.50643
6.14064 4.61981 1.53376
6.26576 4.70282 1.56115
6.39087 4.78613 1.5885
6.51599 4.86969 1.61586
6.6411 4.95339 1.64323
6.76622 5.03717 1.67056
6.89133 5.12096 1.69787
7.01645 5.20479 1.72519
7.14156 5.2887 1.7525
7.26668 5.37269 1.77981
7.39179 5.45676 1.80711
7.51691 5.54083 1.83438
7.64202 5.62479 1.86161
7.76714 5.70857 1.88881
7.89225 5.79215 1.91597
8.01737 5.87564 1.94311
8.14248 5.95923 1.97026
8.2676 6.04304 1.99744
8.39271 6.12721 2.02464
8.51783 6.21169 2.05185
8.64294 6.29647 2.07908
8.76806 6.38137 2.1063
8.89317 6.46619 2.13351
9.01829 6.55084 2.16069
9.1434 6.63527 2.18786
9.26852 6.71956 2.21502
9.39363 6.80379 2.24216
9.51875 6.88806 2.2693
9.64386 6.97229 2.29645
9.76898 7.0565 2.32359
9.89409 7.14096 2.35072
10.0192 7.22549 2.37786
10.1443 7.31003 2.40499
10.2694 7.39459 2.43211
10.3946 7.47914 2.45923
10.5197 7.56366 2.48633
10.6448 7.64818 2.51343
10.7699 7.73269 2.54051
10.895 7.81721 2.56761
11.0201 7.90172 2.59468
11.1452 7.98624 2.6217
11.2704 8.07077 2.64871
11.3955 8.15532 2.67576
11.5206 8.23988 2.70282
11.6457 8.32445 2.72983
11.7708 8.40905 2.75684
11.8959 8.49368 2.78386
12.0211 8.57832 2.8109
12.1462 8.66297 2.83793
12.2713 8.74763 2.86495
12.3964 8.83231 2.89196
12.5215 8.91698 2.91897
12.6466 9.00165 2.946
12.7717 9.08632 2.97302
12.8969 9.17098 3.00003
13.022 9.25564 3.02703
13.1471 9.3403 3.05402
13.2722 9.42497 3.08102
13.3973 9.50965 3.10801
13.5224 9.59434 3.135
13.6475 9.67904 3.16198
13.7727 9.76376 3.18897
13.8978 9.8485 3.21595
14.0229 9.93325 3.24293
14.148 10.018 3.2699
14.2731 10.1028 3.29687
14.3982 10.1876 3.32383
14.5234 10.2723 3.35079
14.6485 10.3571 3.37774
14.7736 10.4419 3.40469
14.8987 10.5267 3.43163
15.0238 10.6115 3.45856
15.1489 10.6963 3.48549
15.274 10.7811 3.51241
15.3992 10.8659 3.53932
15.5243 10.9507 3.56623
15.6494 11.0354 3.59314
15.7745 11.1202 3.62005
15.8996 11.205 3.64695
16.0247 11.2898 3.67386
16.1498 11.3745 3.70077
16.275 11.4593 3.72768
16.4001 11.544 3.7546
16.5252 11.6288 3.78152
16.6503 11.7135 3.80844
16.7754 11.7983 3.83536
16.9005 11.883 3.86229
17.0257 11.9678 3.88921
17.1508 12.0526 3.91613
17.2759 12.1374 3.94304
17.401 12.2222 3.96995
17.5261 12.307 3.99685
17.6512 12.3918 4.02375
17.7763 12.4766 4.05064
17.9015 12.5614 4.07752
18.0266 12.6462 4.1044
18.1517 12.731 4.13127
18.2768 12.8159 4.15814
18.4019 12.9007 4.18501
18.527 12.9855 4.21187
18.6522 13.0703 4.23873
18.7773 13.155 4.2656
18.9024 13.2398 4.29246
19.0275 13.3246 4.31933
19.1526 13.4094 4.3462
19.2777 13.4942 4.37306
19.4028 13.579 4.39993
19.528 13.6638 4.4268
19.6531 13.7486 4.45367
19.7782 13.8335 4.48053
19.9033 13.9183 4.5074
20.0284 14.0031 4.53425
20.1535 14.0879 4.56111
20.2786 14.1727 4.58795
20.4038 14.2575 4.6148
20.5289 14.3424 4.64163
20.654 14.4272 4.66845
20.7791 14.512 4.69527
20.9042 14.5968 4.72209
21.0293 14.6816 4.74891
21.1545 14.7664 4.77571
21.2796 14.8512 4.80251
21.4047 14.936 4.82929
21.5298 15.0208 4.85606
21.6549 15.1056 4.88282
21.78 15.1904 4.90959
21.9051 15.2752 4.93637
22.0303 15.3599 4.96316
22.1554 15.4447 4.98996
22.2805 15.5295 5.01675
22.4056 15.6142 5.04352
22.5307 15.699 5.07029
22.6558 15.7837 5.09706
22.781 15.8685 5.12383
22.9061 15.9532 5.15062
23.0312 16.0379 5.17741
23.1563 16.1227 5.2042
23.2814 16.2074 5.23098
23.4065 16.2922 5.25777
23.5316 16.3769 5.28454
23.6568 16.4617 5.31132
23.7819 16.5465 5.33809
23.907 16.6313 5.36486
24.0321 16.7161 5.39162
24.1572 16.8009 5.41838
24.2823 16.8858 5.44513
24.4074 16.9706 5.47189
24.5326 17.0555 5.49863
24.6577 17.1403 5.52538
24.7828 17.2252 5.55213
24.9079 17.3101 5.57889
25.033 17.3949 5.60564
25.1581 17.4798 5.63239
25.2833 17.5646 5.65913
25.4084 17.6495 5.68587
25.5335 17.7343 5.71261
25.6586 17.8191 5.73934
25.7837 17.9038 5.76608
25.9088 17.9886 5.79281
26.0339 18.0733 5.81954
26.1591 18.1581 5.84627
26.2842 18.2427 5.873
26.4093 18.3274 5.89973
26.5344 18.4121 5.92645
26.6595 18.4967 5.95318
26.7846 18.5814 5.97991
26.9097 18.666 6.00663
27.0349 18.7506 6.03335
27.16 18.8353 6.06007
27.2851 18.9199 6.08679
27.4102 19.0045 6.11351
27.5353 19.0891 6.14023
27.6604 19.1738 6.16695
27.7856 19.2584 6.19366
27.9107 19.3431 6.22038
28.0358 19.4277 6.24709
28.1609 19.5124 6.2738
28.286 19.5971 6.30051
28.4111 19.6818 6.32721
28.5362 19.7665 6.35391
28.6614 19.8512 6.38061
28.7865 19.9359 6.40731
28.9116 20.0206 6.434
29.0367 20.1053 6.46069
29.1618 20.19 6.48738
29.2869 20.2747 6.51406
29.4121 20.3594 6.54075
29.5372 20.4441 6.56742
29.6623 20.5288 6.59409
29.7874 20.6135 6.62076
29.9125 20.6982 6.64742
30.0376 20.7829 6.67408
30.1627 20.8676 6.70074
30.2879 20.9522 6.72739
30.413 21.0369 6.75404
30.5381 21.1215 6.78069
30.6632 21.2062 6.80734
30.7883 21.2908 6.83398
30.9134 21.3755 6.86063
31.0385 21.4601 6.88727
31.1637 21.5448 6.91391
31.2888 21.6294 6.94055
31.4139 21.714 6.96719
31.539 21.7986 6.99383
31.6641 21.8832 7.02047
31.7892 21.9679 7.04712
31.9144 22.0525 7.07376
32.0395 22.1371 7.10041
32.1646 22.2217 7.12707
32.2897 22.3063 7.15372
32.4148 22.3908 7.18037
32.5399 22.4754 7.20703
32.665 22.56 7.23367
32.7902 22.6446 7.26032
32.9153 22.7292 7.28697
33.0404 22.8138 7.31362
33.1655 22.8984 7.34028
33.2906 22.9829 7.36696
33.4157 23.0675 7.39364
33.5409 23.1521 7.42035
33.666 23.2367 7.44706
33.7911 23.3213 7.47377
33.9162 23.4059 7.50049
34.0413 23.4904 7.52719
34.1664 23.575 7.55388
34.2915 23.6596 7.58055
34.4167 23.7442 7.60721
34.5418 23.8287 7.63385
34.6669 23.9133 7.66049
34.792 23.9979 7.68711
34.9171 24.0825 7.71373
35.0422 24.167 7.74034
35.1673 24.2516 7.76695
35.2925 24.3361 7.79356
35.4176 24.4207 7.82017
35.5427 24.5053 7.84679
35.6678 24.5898 7.87342
35.7929 24.6744 7.90006
35.918 24.7589 7.92669
36.0432 24.8435 7.95331
36.1683 24.928 7.97992
36.2934 25.0125 8.0065
36.4185 25.0969 8.03305
36.5436 25.1814 8.05958
36.6687 25.2659 8.0861
36.7938 25.3503 8.11261
36.919 25.4349 8.13913
37.0441 25.5194 8.16566
37.1692 25.6039 8.1922
37.2943 25.6883 8.21877
37.4194 25.7726 8.24535
37.5445 25.8569 8.27194
37.6696 25.9412 8.29854
37.7948 26.0255 8.32514
37.9199 26.1101 8.35173
38.045 26.195 8.37832
38.1701 26.2802 8.4049
38.2952 26.3657 8.43148
38.4203 26.4511 8.45805
38.5455 26.5364 8.48462
38.6706 26.6212 8.51119
38.7957 26.7055 8.53776
38.9208 26.7894 8.56433
39.0459 26.8729 8.5909
39.171 26.9564 8.61747
39.2961 27.04 8.64404
39.4213 27.1238 8.67061
39.5464 27.208 8.69717
39.6715 27.2924 8.72374
39.7966 27.3771 8.7503
39.9217 27.4618 8.77686
40.0468 27.5465 8.80342
40.172 27.6311 8.82998
40.2971 27.7157 8.85654
40.4222 27.8003 8.88309
40.5473 27.8848 8.90965
40.6724 27.9693 8.9362
40.7975 28.0538 8.96275
40.9226 28.1383 8.9893
41.0478 28.2229 9.01585
41.1729 28.3075 9.0424
41.298 28.392 9.06895
41.4231 28.4766 9.09549
41.5482 28.5611 9.12203
41.6733 28.6456 9.14857
41.7984 28.7302 9.17511
41.9236 28.8147 9.20165
42.0487 28.8992 9.22819
42.1738 28.9836 9.25472
42.2989 29.0681 9.28126
42.424 29.1525 9.3078
42.5491 29.2369 9.33433
42.6743 29.3214 9.36086
42.7994 29.4057 9.38739
42.9245 29.4901 9.41391
43.0496 29.5744 9.44043
43.1747 29.6588 9.46694
43.2998 29.7431 9.49345
43.4249 29.8274 9.51995
43.5501 29.9117 9.54646
43.6752 29.9959 9.57296
43.8003 30.0802 9.59946
43.9254 30.1645 9.62595
44.0505 30.2487 9.65245
44.1756 30.3329 9.67895
44.3008 30.4171 9.70544
44.4259 30.5014 9.73194
44.551 30.5856 9.75844
44.6761 30.6698 9.78494
44.8012 30.754 9.81143
44.9263 30.8382 9.83793
45.0514 30.9224 9.86443
45.1766 31.0066 9.89093
45.3017 31.0908 9.91743
45.4268 31.175 9.94393
45.5519 31.2592 9.97043
45.677 31.3434 9.99692
45.8021 31.4276 10.0234
45.9272 31.5118 10.0499
46.0524 31.596 10.0764
46.1775 31.6803 10.1029
46.3026 31.7645 10.1294
46.4277 31.8488 10.1559
46.5528 31.933 10.1824
46.6779 32.0172 10.2089
46.8031 32.1015 10.2354
46.9282 32.1858 10.2618
47.0533 32.27 10.2883
47.1784 32.3543 10.3148
47.3035 32.4385 10.3413
47.4286 32.5228 10.3678
47.5537 32.6071 10.3943
47.6789 32.6913 10.4208
47.804 32.7756 10.4472
47.9291 32.8599 10.4737
48.0542 32.9441 10.5002
48.1793 33.0284 10.5267
48.3044 33.1127 10.5532
48.4295 33.1969 10.5796
48.5547 33.2812 10.6061
48.6798 33.3655 10.6326
48.8049 33.4498 10.6591
48.93 33.534 10.6855
49.0551 33.6183 10.712
49.1802 33.7026 10.7385
49.3054 33.7868 10.7649
49.4305 33.8711 10.7914
49.5556 33.9553 10.8179
49.6807 34.0396 10.8443
49.8058 34.1239 10.8708
49.9309 34.2081 10.8973
50.056 34.2924 10.9237
50.1812 34.3766 10.9502
50.3063 34.4609 10.9766
50.4314 34.5451 11.003
50.5565 34.6294 11.0295
50.6816 34.7136 11.0559
50.8067 34.7978 11.0824
50.9319 34.882 11.1088
51.057 34.9663 11.1352
51.1821 35.0505 11.1617
51.3072 35.1347 11.1881
51.4323 35.2189 11.2145
51.5574 35.3031 11.2409
51.6825 35.3873 11.2673
51.8077 35.4715 11.2938
51.9328 35.5557 11.3202
52.0579 35.6399 11.3466
52.183 35.7241 11.373
52.3081 35.8083 11.3994
52.4332 35.8925 11.4258
52.5583 35.9767 11.4522
52.6835 36.0608 11.4786
52.8086 36.145 11.505
52.9337 36.2291 11.5315
53.0588 36.3133 11.5579
53.1839 36.3974 11.5843
53.309 36.4816 11.6107
53.4342 36.5657 11.6371
53.5593 36.6498 11.6635
53.6844 36.734 11.6899
53.8095 36.8181 11.7163
53.9346 36.9022 11.7427
54.0597 36.9863 11.7691
54.1848 37.0704 11.7955
54.31 37.1545 11.8219
54.4351 37.2386 11.8483
54.5602 37.3227 11.8747
54.6853 37.4068 11.901
54.8104 37.4909 11.9274
54.9355 37.575 11.9538
55.0607 37.6591 11.9802
55.1858 37.7432 12.0066
55.3109 37.8272 12.033
55.436 37.9113 12.0594
55.5611 37.9954 12.0858
55.6862 38.0795 12.1122
55.8113 38.1635 12.1386
55.9365 38.2476 12.165
56.0616 38.3316 12.1914
56.1867 38.4157 12.2178
56.3118 38.4998 12.2442
56.4369 38.5838 12.2706
56.562 38.6679 12.297
56.6871 38.7519 12.3234
56.8123 38.836 12.3498
56.9374 38.92 12.3762
57.0625 39.0041 12.4025
57.1876 39.0881 12.4289
57.3127 39.1722 12.4553
57.4378 39.2562 12.4817
57.563 39.3403 12.5081
57.6881 39.4243 12.5345
57.8132 39.5083 12.5609
57.9383 39.5924 12.5872
58.0634 39.6764 12.6136
58.1885 39.7604 12.64
58.3136 39.8444 12.6664
58.4388 39.9285 12.6928
58.5639 40.0125 12.7191
58.689 40.0965 12.7455
58.8141 40.1805 12.7719
58.9392 40.2646 12.7983
59.0643 40.3486 12.8246
59.1894 40.4326 12.851
59.3146 40.5166 12.8774
59.4397 40.6006 12.9037
59.5648 40.6846 12.9301
59.6899 40.7686 12.9565
59.815 40.8526 12.9828
59.9401 40.9366 13.0092
60.0653 41.0206 13.0355
60.1904 41.1046 13.0619
60.3155 41.1886 13.0883
60.4406 41.2725 13.1146
60.5657 41.3565 13.141
60.6908 41.4405 13.1673
60.8159 41.5245 13.1937
60.9411 41.6084 13.22
61.0662 41.6924 13.2464
61.1913 41.7764 13.2727
61.3164 41.8603 13.2991
61.4415 41.9443 13.3254
61.5666 42.0282 13.3518
61.6918 42.1122 13.3781
61.8169 42.1961 13.4045
61.942 42.2801 13.4308
62.0671 42.364 13.4572
62.1922 42.448 13.4835
62.3173 42.5319 13.5098
62.4424 42.6158 13.5362
62.5676 42.6998 13.5625
62.6927 42.7837 13.5889
62.8178 42.8676 13.6152
62.9429 42.9515 13.6415
63.068 43.0354 13.6679
63.1931 43.1194 13.6942
63.3182 43.2033 13.7206
63.4434 43.2872 13.7469
63.5685 43.3711 13.7732
63.6936 43.455 13.7996
63.8187 43.5389 13.8259
63.9438 43.6228 13.8522
64.0689 43.7067 13.8786
64.1941 43.7906 13.9049
64.3192 43.8745 13.9312
64.4443 43.9584 13.9575
64.5694 44.0423 13.9839
64.6945 44.1261 14.0102
64.8196 44.21 14.0365
64.9447 44.2939 14.0628
65.0699 44.3778 14.0892
65.195 44.4617 14.1155
65.3201 44.5455 14.1418
65.4452 44.6294 14.1681
65.5703 44.7133 14.1945
65.6954 44.7971 14.2208
65.8206 44.881 14.2471
65.9457 44.9649 14.2735
66.0708 45.0487 14.2998
66.1959 45.1326 14.3261
66.321 45.2165 14.3525
66.4461 45.3003 14.3788
66.5712 45.3842 14.4052
66.6964 45.468 14.4315
66.8215 45.5519 14.4579
66.9466 45.6357 14.4842
67.0717 45.7196 14.5105
67.1968 45.8034 14.5369
67.3219 45.8872 14.5632
67.447 45.9711 14.5895
67.5722 46.0549 14.6158
67.6973 46.1387 14.6421
67.8224 46.2226 14.6685
67.9475 46.3064 14.6948
68.0726 46.3902 14.7211
68.1977 46.474 14.7474
68.3229 46.5578 14.7737
68.448 46.6417 14.8
68.5731 46.7255 14.8263
68.6982 46.8093 14.8525
68.8233 46.8931 14.8788
68.9484 46.9768 14.9051
69.0735 47.0606 14.9314
69.1987 47.1444 14.9577
69.3238 47.2282 14.984
69.4489 47.312 15.0102
69.574 47.3958 15.0365
69.6991 47.4795 15.0628
69.8242 47.5633 15.0891
69.9493 47.6471 15.1154
70.0745 47.7309 15.1417
70.1996 47.8146 15.1679
70.3247 47.8984 15.1942
70.4498 47.9822 15.2205
70.5749 48.0659 15.2468
70.7 48.1497 15.2731
70.8252 48.2334 15.2994
70.9503 48.3172 15.3257
71.0754 48.4009 15.3519
71.2005 48.4846 15.3782
71.3256 48.5684 15.4045
71.4507 48.6521 15.4307
71.5758 48.7358 15.457
71.701 48.8195 15.4832
71.8261 48.9032 15.5095
71.9512 48.987 15.5357
72.0763 49.0707 15.5619
72.2014 49.1544 15.5882
72.3265 49.2381 15.6144
72.4517 49.3218 15.6406
72.5768 49.4055 15.6668
72.7019 49.4892 15.693
72.827 49.5729 15.7193
72.9521 49.6566 15.7455
73.0772 49.7402 15.7717
73.2023 49.8239 15.7979
73.3275 49.9077 15.8242
73.4526 49.9914 15.8504
73.5777 50.0751 15.8766
73.7028 50.1588 15.9029
73.8279 50.2425 15.9291
73.953 50.3262 15.9553
74.0781 50.4099 15.9816
74.2033 50.4936 16.0078
74.3284 50.5772 16.0341
74.4535 50.6609 16.0603
74.5786 50.7445 16.0866
74.7037 50.8281 16.1128
74.8288 50.9117 16.139
74.954 50.9952 16.1653
75.0791 51.0787 16.1915
75.2042 51.1623 16.2177
75.3293 51.2458 16.244
75.4544 51.3294 16.2702
75.5795 51.413 16.2964
75.7046 51.4967 16.3227
75.8298 51.5805 16.3489
75.9549 51.6643 16.3751
76.08 51.7483 16.4013
76.2051 51.8323 16.4275
76.3302 51.9163 16.4538
76.4553 52.0005 16.48
76.5805 52.0846 16.5062
76.7056 52.1688 16.5324
76.8307 52.2529 16.5587
76.9558 52.337 16.5849
77.0809 52.4209 16.6111
77.206 52.5047 16.6374
77.3311 52.5884 16.6636
77.4563 52.672 16.6898
77.5814 52.7554 16.716
77.7065 52.8386 16.7423
77.8316 52.9218 16.7685
77.9567 53.0049 16.7947
78.0818 53.088 16.8209
78.2069 53.171 16.8472
78.3321 53.2541 16.8734
78.4572 53.3372 16.8996
78.5823 53.4204 16.9259
78.7074 53.5036 16.9521
78.8325 53.587 16.9783
78.9576 53.6704 17.0046
79.0828 53.754 17.0308
79.2079 53.8376 17.057
79.333 53.9212 17.0833
79.4581 54.0049 17.1095
79.5832 54.0887 17.1357
79.7083 54.1724 17.162
79.8334 54.2561 17.1882
79.9586 54.3399 17.2145
80.0837 54.4236 17.2407
80.2088 54.5073 17.267
80.3339 54.591 17.2932
80.459 54.6747 17.3194
80.5841 54.7583 17.3457
80.7092 54.842 17.3719
80.8344 54.9256 17.3982
80.9595 55.0093 17.4244
81.0846 55.0929 17.4507
81.2097 55.1765 17.4769
81.3348 55.2602 17.5032
81.4599 55.3439 17.5294
81.5851 55.4275 17.5557
81.7102 55.5112 17.5819
81.8353 55.5949 17.6081
81.9604 55.6786 17.6344
82.0855 55.7623 17.6606
82.2106 55.846 17.6869
82.3357 55.9297 17.7131
82.4609 56.0134 17.7394
82.586 56.0971 17.7656
82.7111 56.1808 17.7918
82.8362 56.2644 17.8181
82.9613 56.3481 17.8443
83.0864 56.4318 17.8705
83.2116 56.5155 17.8968
83.3367 56.5991 17.923
83.4618 56.6828 17.9492
83.5869 56.7665 17.9755
83.712 56.8501 18.0017
83.8371 56.9337 18.0279
83.9622 57.0174 18.0541
84.0874 57.101 18.0803
84.2125 57.1846 18.1066
84.3376 57.2682 18.1328
84.4627 57.3519 18.159
84.5878 57.4355 18.1852
84.7129 57.519 18.2114
84.838 57.6026 18.2376
84.9632 57.6862 18.2638
85.0883 57.7698 18.29
85.2134 57.8533 18.3161
85.3385 57.9369 18.3423
85.4636 58.0204 18.3685
85.5887 58.1039 18.3947
85.7139 58.1874 18.4208
85.839 58.2709 18.447
85.9641 58.3544 18.4731
86.0892 58.4379 18.4993
86.2143 58.5213 18.5254
86.3394 58.6048 18.5516
86.4645 58.6882 18.5777
86.5897 58.7716 18.6039
86.7148 58.855 18.63
86.8399 58.9384 18.6562
86.965 59.0217 18.6823
87.0901 59.1051 18.7084
87.2152 59.1884 18.7346
87.3404 59.2717 18.7607
87.4655 59.3551 18.7868
87.5906 59.4384 18.8129
87.7157 59.5216 18.839
87.8408 59.6049 18.8652
87.9659 59.6882 18.8913
88.091 59.7715 18.9174
88.2162 59.8547 18.9435
88.3413 59.9379 18.9696
88.4664 60.0212 18.9957
88.5915 60.1044 19.0218
88.7166 60.1876 19.0479
88.8417 60.2708 19.074
88.9668 60.354 19.1001
89.092 60.4372 19.1262
89.2171 60.5204 19.1523
89.3422 60.6036 19.1784
89.4673 60.6868 19.2044
89.5924 60.7699 19.2305
89.7175 60.8531 19.2566
89.8427 60.9362 19.2827
89.9678 61.0194 19.3088
90.0929 61.1025 19.3348
90.218 61.1857 19.3609
90.3431 61.2688 19.387
90.4682 61.352 19.4131
90.5933 61.4351 19.4392
90.7185 61.5183 19.4652
90.8436 61.6014 19.4913
90.9687 61.6845 19.5174
91.0938 61.7677 19.5435
91.2189 61.8508 19.5695
91.344 61.9339 19.5956
91.4691 62.0171 19.6217
91.5943 62.1002 19.6478
91.7194 62.1833 19.6739
91.8445 62.2665 19.7
91.9696 62.3496 19.726
92.0947 62.4328 19.7521
92.2198 62.5159 19.7782
92.345 62.5991 19.8043
92.4701 62.6822 19.8304
92.5952 62.7654 19.8565
92.7203 62.8485 19.8825
92.8454 62.9317 19.9086
92.9705 63.0149 19.9347
93.0956 63.0981 19.9608
93.2208 63.1813 19.9869
93.3459 63.2644 20.013
93.471 63.3476 20.0391
93.5961 63.4308 20.0652
93.7212 63.514 20.0913
93.8463 63.5972 20.1174
93.9715 63.6805 20.1435
94.0966 63.7637 20.1696
94.2217 63.8469 20.1957
94.3468 63.9301 20.2217
94.4719 64.0133 20.2478
94.597 64.0966 20.2739
94.7221 64.1798 20.3
94.8473 64.263 20.3261
94.9724 64.3463 20.3522
95.0975 64.4295 20.3783
95.2226 64.5127 20.4044
95.3477 64.596 20.4305
95.4728 64.6792 20.4566
95.5979 64.7625 20.4827
95.7231 64.8457 20.5088
95.8482 64.929 20.5349
95.9733 65.0122 20.561
96.0984 65.0955 20.5871
96.2235 65.1787 20.6132
96.3486 65.2619 20.6393
96.4738 65.3452 20.6654
96.5989 65.4284 20.6915
96.724 65.5117 20.7176
96.8491 65.5949 20.7437
96.9742 65.6782 20.7698
97.0993 65.7614 20.7959
97.2244 65.8447 20.822
97.3496 65.9279 20.8481
97.4747 66.0112 20.8742
97.5998 66.0944 20.9003
97.7249 66.1776 20.9264
97.85 66.2609 20.9525
97.9751 66.3441 20.9786
98.1003 66.4273 21.0047
98.2254 66.5106 21.0308
98.3505 66.5938 21.0569
98.4756 66.677 21.083
98.6007 66.7602 21.109
98.7258 66.8435 21.1351
98.8509 66.9267 21.1612
98.9761 67.0099 21.1873
99.1012 67.0931 21.2134
99.2263 67.1763 21.2395
99.3514 67.2595 21.2656
99.4765 67.3427 21.2916
99.6016 67.4259 21.3177
99.7267 67.509 21.3438
99.8519 67.5922 21.3699
99.977 67.6754 21.396
100.102 67.7586 21.422
100.227 67.8417 21.4481
100.352 67.9249 21.4742
100.477 68.0081 21.5003
100.603 68.0912 21.5263
100.728 68.1744 21.5524
100.853 68.2575 21.5785
100.978 68.3406 21.6045
101.103 68.4238 21.6306
101.228 68.5069 21.6566
101.353 68.59 21.6827
101.478 68.6732 21.7088
101.603 68.7563 21.7348
101.729 68.8394 21.7609
101.854 68.9225 21.7869
101.979 69.0056 21.813
102.104 69.0887 21.839
102.229 69.1718 21.8651
102.354 69.2549 21.8911
102.479 69.338 21.9172
102.604 69.4211 21.9432
102.73 69.5041 21.9693
102.855 69.5872 21.9953
102.98 69.6703 22.0214
103.105 69.7534 22.0474
103.23 69.8364 22.0735
103.355 69.9195 22.0995
103.48 70.0026 22.1255
103.605 70.0856 22.1516
103.73 70.1687 22.1776
103.856 70.2517 22.2036
103.981 70.3348 22.2297
104.106 70.4179 22.2557
104.231 70.5009 22.2818
104.356 70.584 22.3078
104.481 70.667 22.3338
104.606 70.75 22.3599
104.731 70.8331 22.3859
104.856 70.9161 22.4119
104.982 70.9992 22.4379
105.107 71.0822 22.464
105.232 71.1652 22.49
